,X-Coord,Y-Coord,Bearing,Speed,Current State
30.048000000000002,29.141777178449463,25.423964604050852,1.2502422484666098,0.11680903138770667,0.0
30.080000000000002,29.134406016879886,25.425996910898544,1.2503028063843595,0.23942689107406215,0.0
30.112000000000002,29.12331406741253,25.429180965655835,1.2503299497156093,0.3611247853794264,0.0
30.144000000000002,29.10849379292897,25.433539511412153,1.2503270351893667,0.48318702232552063,0.0
30.176000000000002,29.089906714157262,25.439102100883538,1.2502997998501053,0.606644961800247,0.0
30.208000000000002,29.067490833244264,25.4459051294712,1.2502541182710407,0.7322933684578777,0.0
30.240000000000002,29.04116695679791,25.453989935001253,1.2501956043570785,0.8607078354339696,0.0
30.272000000000002,29.01084443520203,25.463400638739575,1.2501294440649093,0.9922631376526232,0.0
30.304000000000002,28.976426278503187,25.47418212799395,1.2500602440144943,1.127156439304394,0.0
30.336000000000002,28.937813542093632,25.486378326425854,1.2499919037825713,1.2654344602031526,0.0
30.368000000000002,28.89490891613851,25.500030811197426,1.2499275360447395,1.4070224128446,0.0
30.400000000000002,28.847620591545713,25.515177583430223,1.2498687408342797,1.551718459784295,0.0
30.432000000000002,28.79586315529187,25.531852503280128,1.249816948304452,1.6992891484198958,0.0
30.464000000000002,28.7395604687634,25.550084802628913,1.2497723637307332,1.8494113996493675,0.0
30.496000000000002,28.678644129324276,25.56989908774203,1.2497355565250732,2.0018086107901443,0.0
30.528000000000002,28.61305302721754,25.591315789696317,1.2497071787730059,2.156222242249393,0.0
30.560000000000002,28.542733723948672,25.61435148373786,1.2496874102079072,2.3123860476475757,0.0
30.592000000000002,28.46764044827614,25.6390191459243,1.2496759676695737,2.470036715118034,0.0
30.624000000000002,28.387734790782396,25.66532846365052,1.249672241055595,2.6289232274592504,0.0
30.656000000000002,28.302986235749795,25.693286049444502,1.2496749347551024,2.7887809813988196,0.0
30.688000000000002,28.21337097424575,25.722895779213385,1.249682833157894,2.9493839651239773,0.0
30.72,28.1188708191745,25.754159273657493,1.2496949122102199,3.1105430933016103,0.0
30.752,28.019472623727562,25.787076320923603,1.249710162235005,3.272090686832596,0.0
30.784,27.915167177984067,25.82164531366165,1.2497279166916506,3.4338960995431647,0.0
30.816,27.80594855915223,25.85786359055514,1.2497476519336987,3.595851327146957,0.0
30.848,27.691813542782054,25.895727715296772,1.2497689396219558,3.757868590519233,0.0
30.88,27.572761087173728,25.935233712729136,1.2497914269249712,3.919877748183491,0.0
30.912,27.4487918934139,25.976377268611348,1.2498148226917543,4.081823697850179,0.0
30.944,27.31990803892972,26.019153897348666,1.249838887434579,4.243663880711931,0.0
30.976,27.186112679690233,26.06355908095618,1.2498634275833134,4.405365960181424,0.0
31.008,27.04740981435772,26.10958838134426,1.2498882939872573,4.566905718196263,0.0
31.04,26.90380410256985,26.15723752686437,1.2499133837041887,4.728265191755596,0.0
31.072,26.755300729037586,26.206502473260265,1.2499386433482662,4.889431057285147,0.0
31.104,26.601905305230005,26.257379439001948,1.249964071893072,5.050393259229041,0.0
31.136,26.4436238010224,26.30986491555753,1.2499897209373185,5.211143871041295,0.0
31.168,26.28046249970209,26.363955654407413,1.250015691025665,5.371676170917691,0.0
31.2,26.11242797099871,26.419648634248187,1.2500421235537875,5.531983910735755,0.0
31.232,25.939527058135273,26.476941013445643,1.250069188860136,5.692060754502065,0.0
31.264,25.761766876081055,26.535830073903593,1.250097072052364,5.851899861817961,0.0
31.296,25.57915481906332,26.5963131627339,1.2501259586862432,6.011493592253522,0.0
31.328,25.391698575876475,26.658387637273027,1.2501560224491401,6.170833307822683,0.0
31.36,25.1994061516329,26.72205081721817,1.2501874164826956,6.32990925279957,0.0
31.392,25.002285894448956,26.787299945362633,1.2502202690547708,6.4887104926771,0.0
31.424,24.80034652533898,26.854132156189284,1.2502546832310346,6.647224896932905,0.0
31.456,24.593597169493552,26.92254445002242,1.2502907393207454,6.805439153142106,0.0
31.488,24.382047387282313,26.992533669930967,1.2503284984404768,6.9633388026092,0.0
31.52,24.1657072037722,27.064096479158692,1.2503680056642208,7.120908289901817,0.0
31.552,23.944587136194947,27.13722933819568,1.2504092918245926,7.27813102037879,0.0
31.584,23.71869821945165,27.211928482107677,1.250452373847312,7.4349894210765815,0.0
31.616,23.48805203021238,27.28818989978493,1.2504972542182082,7.591465001271578,0.0
31.648,23.25266071032726,27.366009316957392,1.2505439205335718,7.747538409842598,0.0
31.68,23.012536990107083,27.445382184129603,1.250592345969826,7.903189487335462,0.0
31.712,22.76769421167583,27.52630366938027,1.2506424910286775,8.058397311446571,0.0
31.744,22.518146352233693,27.608768654821283,1.250694306321356,8.213140235451496,0.0
31.776,22.263908046870267,27.69277173492842,1.2507477357323171,8.36739591979262,0.0
31.808,22.004994610607948,27.778307215147457,1.2508027192273492,8.521141357523875,0.0
31.84,21.741422059584515,27.865369109962327,1.250859194838241,8.674352894506287,0.0
31.872,21.473207131556876,27.9539511405275,1.250917099792119,8.827006245232402,0.0
31.904,21.200367306071268,28.04404673253832,1.2509763711170347,8.979076505028987,0.0
31.936,20.92292082461891,28.135649014998613,1.2510369461706454,9.130538159264868,0.0
31.968,20.640886710913428,28.2287508200546,1.251098763385243,9.281365090169485,0.0
32.0,20.354284791205824,28.32334468346332,1.2511617632315797,9.431530581915785,0.0
32.032000000000004,20.06313571442096,28.419422844939053,1.251225889168541,9.581007324698302,0.0
32.064,19.767460971915277,28.516977247743228,1.2512910882993618,9.729767418538895,0.0
32.096000000000004,19.467282916779638,28.61599953732528,1.2513573115971937,9.87778237747019,0.0
32.128,19.16262478274255,28.716481059269725,1.251424513774743,10.025023134579758,0.0
32.160000000000004,18.853510702775818,28.81841285698139,1.2514926530074753,10.171460048256696,0.0
32.192,18.539965727446095,28.92178566938752,1.2515616907026799,10.317062909872071,0.0
32.224000000000004,18.222015842945833,29.02658992862423,1.251631591375747,10.461800953111448,0.0
32.256,17.89968798865933,29.132815757460968,1.251702322560915,10.60564286517774,0.0
32.288000000000004,17.573010074122102,29.24045296624571,1.2517738546412223,10.74855680007832,0.0
32.32,17.24201099529749,29.34949104936884,1.2518461605445548,10.890510394156298,0.0
32.352000000000004,16.906720650161603,29.459919181456396,1.2519192153527265,11.031470783952457,0.0
32.384,16.567169953603802,29.571726213554115,1.2519929959239675,11.171404626413594,0.0
32.416000000000004,16.223390851611043,29.684900669445053,1.252067480601798,11.310278121440493,0.0
32.448,15.875416334651115,29.79943074208125,1.2521426490102772,11.448057036768006,0.0
32.480000000000004,15.52328045014838,29.915304290045068,1.2522184818831148,11.584706735182575,0.0
32.512,15.167018313968006,30.032508834023492,1.2522949608797775,11.720192204074044,0.0
32.544000000000004,14.806666120863895,30.151031553394656,1.2523720683880653,11.854478087291248,0.0
32.576,14.442261153865127,30.270859283078998,1.2524497873507103,11.987528719236488,0.0
32.608000000000004,14.073841792562346,30.391978510759753,1.252528101150718,12.119308161128494,0.0
32.64,13.701447520228486,30.51437537448767,1.2526069935559956,12.249780239358751,0.0
32.672000000000004,13.325118929695371,30.638035660639556,1.2526864486946458,12.37890858588091,0.0
32.704,12.944897727919551,30.762944802229036,1.2527664510333212,12.506656680564134,0.0
32.736000000000004,12.560826739192526,30.889087877626338,1.2528469853547424,12.632987895432462,0.0
32.768,12.172949906961067,31.016449609765935,1.2529280367496385,12.757865540691764,0.0
32.8,11.78131229421638,31.1450143658894,1.2530095906352805,12.881252912442417,0.0
32.832,11.385960082398821,31.274766157823635,1.2530916327950867,13.003113341975464,0.0
32.864,10.986940568763185,31.40568864277896,1.2531741494221962,13.123410246548387,0.0
32.896,10.584302162160698,31.537765124674053,1.2532571271550441,13.24210718153285,0.0
32.928,10.178094377206751,31.67097855602164,1.253340553106518,13.359167893810517,0.0
32.96,9.768367826807719,31.805311540408486,1.253424414894754,13.474556376287236,0.0
32.992,9.355174213016852,31.940746335578698,1.2535087006781656,13.588236923385745,0.0
33.024,8.938566316187393,32.07726485710967,1.2535933991885784,13.700174187378845,0.0
33.056,8.518597982397019,32.21484868267273,1.2536784997548456,13.81033323541478,0.0
33.088,8.095324109128052,32.35347905688633,1.2537639923155541,13.918679607080124,0.0
33.12,7.668800629195492,32.49313689677597,1.2538498674252694,14.025179372337195,0.0
33.152,7.2390844929172165,32.63380279784434,1.2539361162580753,14.129799189661627,0.0
33.184,6.806233648522096,32.775457040741586,1.2540227306074279,14.232506364209364,0.0
33.216,6.370307020796917,32.9180795985228,1.2541097028790544,14.33326890582991,0.0
33.248,5.93136448798155,33.061650144486926,1.254197026076073,14.432055586743564,0.0
33.28,5.489466856929803,33.20614806059613,1.2542846937790373,14.52883599869153,0.0
33.312,5.044675836558208,33.35155244646949,1.2543727001238862,14.623580609364442,0.0
33.344,4.597054009608806,33.49784212893628,1.2544610397782723,14.716260817914058,0.0
33.376,4.146664802757472,33.64499567213066,1.254549707915081,14.806849009351666,0.0
33.408,3.6935724551069744,33.792991388112995,1.2546387001829498,14.895318607637591,0.0
33.44,3.237841985111162,33.941807348004225,1.2547280126754339,14.981644127262367,0.0
33.472,2.7795391559822757,34.091421393617246,1.2548176419006647,15.06580122312606,0.0
33.504,2.3187304396379567,34.24181114956318,1.2549075847519078,15.14776673852347,0.0
33.536,1.8554829792499985,34.39295403580795,1.2549978384784697,15.227518751046818,0.0
33.568,1.3898645504633744,34.544827280655625,1.2550884006568928,15.305036616225102,0.0
33.6,0.9219435213600926,34.69740793413542,1.255179269163328,15.38030100872388,0.0
33.632,0.4517888112471782,34.850672881766386,1.2552704421479355,15.453293960937481,0.0
33.664,-0.020530151647658146,35.00459885867031,1.2553619180113402,15.523998898813545,0.0
33.696,-0.4949434734846683,35.15916246400208,1.255453695382695,15.592400674764482,0.0
33.728,-0.9713808390323397,35.314340175666516,1.255545773099253,15.658485597525681,0.0
33.76,-1.4497715567024494,35.470108365290784,1.2556381501878005,15.722241458835978,0.0
33.792,-1.9300446042999353,35.62644331341937,1.2557308258481925,15.783657556829416,0.0
33.824,-2.412128675384974,35.7833212248967,1.2558237994387438,15.84272471603939,0.0
33.856,-2.8959522261420276,35.9407182444018,1.2559170704631006,15.899435303931565,0.0
33.888,-3.3814435226482784,36.098610472099814,1.2560106385584564,15.953783243899643,0.0
33.92,-3.8685306884322106,36.25697397937478,1.256104503485193,16.00576402467027,0.0
33.952,-4.357141752212191,36.41578482460718,1.256198665117884,16.05537470608272,0.0
33.984,-4.847204695704452,36.57501906895935,1.2562931234373804,16.102613921224187,0.0
34.016,-5.3386475013897545,36.73465279213177,1.256387878523691,16.147481874918128,0.0
34.048,-5.831398200128232,36.894662108054376,1.2564829305495693,16.189980338581773,0.0
34.08,-6.325384918512931,37.0550231804768,1.256578279774766,16.23011264148112,0.0
34.112,-6.820535925854071,37.21571223842219,1.2566739265408238,16.267883658435935,0.0
34.144,-7.316779680688082,37.37670559146911,1.256769871266191,16.30329979403289,0.0
34.176,-7.814044876707687,37.53797964482782,1.2568661144415156,16.336368963430598,0.0
34.208,-8.312260488012225,37.699510914177885,1.2569626566250462,16.367100569849487,0.0
34.24,-8.811355813580601,37.861276040235275,1.2570594984381265,16.395505478853256,0.0
34.272,-9.31126052087314,38.023251803018134,1.2571566405606553,16.421595989547114,0.0
34.304,-9.811904688472538,38.18541513578187,1.2572540837264155,16.445385802823974,0.0
34.336,-10.313218847678636,38.34774313859579,1.2573518287182115,16.466889986807637,0.0
34.368,-10.815134022976322,38.51021309153528,1.2574498763628148,16.48612493964701,0.0
34.4,-11.317581771301072,38.67280246746479,1.2575482275256975,16.50310834982817,0.0
34.432,-11.820494220031808,38.835488944389205,1.2576468831055012,16.517859154179334,0.0
34.464,-12.323804103646358,38.99825041735232,1.257745844028224,16.53039749374804,0.0
34.496,-12.827444798980334,39.16106500986379,1.2578451112411293,16.540744667738824,0.0
34.528,-13.331350359036145,39.32391108483751,1.2579446857063992,16.54892308570288,0.0
34.56,-13.835455545294762,39.486767255026194,1.2580445683945467,16.55495621817319,0.0
34.592,-14.339695858488838,39.64961239293929,1.2581447602775866,16.55886854594457,0.0
34.624,-14.844007567801798,39.81242564023306,1.2582452623219857,16.560685508194325,0.0
34.656,-15.348327738463489,39.975186416563844,1.258346075481443,16.560433449642744,0.0
34.688,-15.852594257718993,40.13787442789741,1.258447200689521,16.558139566949237,0.0
34.72,-16.356745859153072,40.30046967426932,1.2585486388521787,16.5538318545392,0.0
34.752,-16.86072214535855,40.46295245699298,1.258650390840219,16.547539050050304,0.0
34.784,-17.364463608942536,40.6253033853141,1.2587524574817104,16.5392905795869,0.0
34.816,-17.86791165186992,40.78750338251207,1.2588548395544186,16.529116502961205,0.0
34.848,-18.37100860314897,40.949533691450476,1.2589575377782956,16.517047459099633,0.0
34.88,-18.873697734868763,41.11137587958045,1.2590605528080616,16.503114611776024,0.0
34.912,-19.375923276603416,41.27301184340263,1.2591638852259197,16.48734959584238,0.0
34.944,-19.877630428202302,41.434423812394485,1.2592675355344463,16.46978446409854,0.0
34.976,-20.3787653709902,41.59559435241159,1.2593715041496976,16.450451634953925,0.0
35.008,-20.879275277405178,41.75650636857255,1.2594757913945627,16.429383841010825,0.0
35.04,-21.379108319105985,41.917143107638594,1.2595803974923991,16.406614078698254,0.0
35.072,-21.878213673584245,42.07748815989994,1.259685322560975,16.382175559071246,0.0
35.104,-22.376541529319862,42.23752546058223,1.2597905666067595,16.356101659880576,0.0
35.136,-22.874043089521223,42.39723929078712,1.2598961295195632,16.328425879014745,0.0
35.168,-23.37067057449419,42.55661427798199,1.2600020110675747,16.29918178939386,0.0
35.2,-23.86637722268643,42.71563539605451,1.260108210892784,16.268402995398056,0.0
35.232,-24.361117290455446,42.87428796494859,1.2602147285068206,16.23612309089538,0.0
35.264,-24.854846050610725,43.03255764989842,1.260321563287217,16.20237561892631,0.0
35.296,-25.347519789781572,43.190430460278236,1.26042871447409,16.167194033094155,0.0
35.328,-25.839095804663668,43.34789274808539,1.2605361811672566,16.13061166069961,0.0
35.36,-26.32953239719812,43.50493120607495,1.260643962323768,16.092661667650283,0.0
35.392,-26.818788868737506,43.66153286556391,1.2607520567558697,16.05337702516511,1.0
35.424,-27.306825513253948,43.81768509392353,1.2608604631293716,16.012790478291347,1.0
35.456,-27.795263110956938,43.973929036303076,1.2604209513283071,16.025597894409056,1.0
35.488,-28.282979950979584,44.13062482321354,1.259207458589123,16.00846008569297,1.0
35.52,-28.771227321823414,44.28811800176931,1.2579401333383442,16.031878234001777,1.0
35.552,-29.258782723132896,44.44581610305615,1.2566635763893765,16.013269023290437,1.0
35.584,-29.746772507007552,44.60429175230368,1.2555100037066056,16.033674106214693,1.0
35.616,-30.23414310433932,44.76303251108693,1.2543556297271798,16.017835046171307,1.0
35.648,-30.72184936478366,44.92261238822686,1.2533525724839045,16.03594461332616,1.0
35.68,-31.208979610128218,45.08246037686133,1.2523297102773137,16.02144751231433,1.0
35.712,-31.696517923362368,45.24312729807466,1.2514039015273883,16.041556054212954,1.0
35.744,-32.18354546433894,45.40408968012221,1.250426233520323,16.02929190986716,1.0
35.776,-32.67097264055432,45.56589198110622,1.2495282260348475,16.049400053291475,1.0
35.808,-33.157895758417496,45.72802032164528,1.2485748657872282,16.037666890583687,1.0
35.84,-33.64525259213657,45.89098533296895,1.2476830594789934,16.05879938604706,1.0
35.872,-34.13214965930304,46.054283874016996,1.2467185882120626,16.048485144509005,1.0
35.904,-34.61947792304819,46.218429028000685,1.2458088651360868,16.069686751167943,1.0
35.936,-35.106329499265414,46.38292722727976,1.2448323487306059,16.05909853311571,1.0
35.968,-35.59361696890787,46.54827046341249,1.2439100338092202,16.08046976703062,1.0
36.0,-36.08044114790585,46.71396571395294,1.2429172276858986,16.07030149106395,1.0
36.032000000000004,-36.5676978008478,46.88049793759968,1.241975627834872,16.091535881439896,1.0
36.064,-37.054491451597485,47.04738718480537,1.2409684747054628,16.08146016326513,1.0
36.096000000000004,-37.54170907457863,47.215105771669556,1.2400139880779546,16.102410795634352,1.0
36.128,-38.02846770245297,47.383176552606876,1.2389974098936882,16.092437771195627,1.0
36.160000000000004,-38.51564590117668,47.552060930396316,1.2380318532949597,16.113141544834882,1.0
36.192,-39.00237325955545,47.72129163221431,1.2370076745646579,16.103381598195668,1.0
36.224000000000004,-39.489509771934095,47.891323034237054,1.2360359174453988,16.123687554475413,1.0
36.256,-39.9761991886188,48.06169524673277,1.2350115562678845,16.114012707289376,1.0
36.288000000000004,-40.463293297756486,48.23284948827076,1.2340402401092463,16.134034720428446,1.0
36.32,-40.94995300460635,48.404335174752475,1.2330190870054,16.124667236857498,1.0
36.352000000000004,-41.437010149694245,48.576586553402244,1.2320518815502473,16.14434405243328,1.0
36.384,-41.923639439008916,48.74916206077584,1.2310400786379863,16.135121913633217,1.0
36.416000000000004,-42.410661719840256,48.922485582680146,1.2300830826994373,16.154519573998,1.0
36.448,-42.897269318298065,49.09612344311185,1.229084317277301,16.145610057839868,1.0
36.480000000000004,-43.38426480570379,49.2704918630405,1.2281404813823493,16.16470862213896,1.0
36.512,-43.87085880952009,49.445166566183126,1.2271579822397063,16.15612840060854,1.0
36.544000000000004,-44.357834463468905,49.6205554774767,1.2262310721777139,16.174903373206586,1.0
36.576,-44.84442177007881,49.796241888364065,1.2252681005751123,16.166640818209277,1.0
36.608000000000004,-45.33138551753872,49.97262572144568,1.2243605406918279,16.185115321850276,1.0
36.64,-45.81797412447141,50.14929900276227,1.2234192078140025,16.17717819836015,1.0
36.672000000000004,-46.30493367977308,50.3266540330161,1.2225332627467618,16.195353306685213,1.0
36.704,-46.791530877448736,50.50429077547952,1.2216155671952926,16.187730605235508,1.0
36.736000000000004,-47.27849421681032,50.68259343529008,1.2207526836882534,16.20562248143346,1.0
36.768,-47.76510810516942,50.86117007340485,1.219859568419535,16.19831600890101,1.0
36.800000000000004,-48.2520833807223,51.04039749621476,1.2190205975300346,16.215931484300746,1.0
36.832,-48.738721601707425,51.219891692595766,1.218152872349284,16.208930218091908,1.0
36.864000000000004,-49.225716516016334,51.4000216252572,1.217338428048819,16.226269912282845,1.0
36.896,-49.71238796272242,51.58040702864409,1.216494025144574,16.219562573471826,1.0
36.928,-50.19941139152341,51.761417818753095,1.2157036861035133,16.236675017090196,1.0
36.96,-50.686123921183466,51.94267298383235,1.214882941700971,16.230232020860942,1.0
36.992,-51.17318319686464,52.124543074310374,1.2141168680907664,16.247099135890153,1.0
37.024,-51.659940712574354,52.30664695532709,1.2133214095706146,16.240823822777273,1.0
37.056,-52.14704360067519,52.489350518464086,1.212577906294452,16.257504745158133,1.0
37.088,-52.63383898432675,52.67228244233063,1.2118139130789898,16.25101663976493,1.0
37.12,-53.120988831248305,52.85579661384865,1.2110951153654876,16.267791477798387,1.0
37.152,-53.60782901586479,53.03953141508091,1.2103617207730657,16.26116933045444,1.0
37.184,-54.09503548389127,53.2238324183133,1.2096659798331364,16.27813076814568,1.0
37.216,-54.58192984278592,53.40834696380161,1.2089628602810758,16.271372204998283,1.0
37.248,-55.069203413854446,53.593409418280956,1.2082888917122319,16.288525400343108,1.0
